intensity
1148.0
1063.0
-709.0
-355.0
-19.0
-1.0
16.0
11.0
25.0
9.0
772.0
881.0
248.0
602.0
561.0
401.0
505.0
684.0
436.0
918.0
782.0
311.0
374.0
375.0
679.0
468.0
361.0
672.0
712.0
270.0
398.0
1017.0
551.0
238.0
554.0
619.0
560.0
224.0
572.0
582.0
523.0
850.0
565.0
306.0
712.0
548.0
564.0
464.0
612.0
666.0
316.0
568.0
648.0
794.0
442.0
438.0
769.0
214.0
457.0
764.0
464.0
363.0
522.0
791.0
545.0
326.0
792.0
547.0
590.0
740.0
792.0
500.0
236.0
521.0
432.0
774.0
796.0
840.0
325.0
276.0
508.0
859.0
585.0
-43.0
535.0
807.0
761.0
438.0
629.0
582.0
151.0
395.0
756.0
453.0
906.0
524.0
386.0
497.0
389.0
376.0
698.0
570.0
759.0
536.0
390.0
935.0
601.0
377.0
388.0
681.0
1516.0
162.0
1088.0
1150.0
-1669.0
272.0
1638.0
278.0
-415.0
651.0
687.0
599.0
586.0
288.0
379.0
500.0
1038.0
471.0
9.0
529.0
929.0
682.0
184.0
505.0
963.0
547.0
362.0
1022.0
254.0
-104.0
621.0
521.0
533.0
501.0
631.0
656.0
437.0
452.0
501.0
419.0
966.0
831.0
188.0
991.0
592.0
74.0
479.0
674.0
474.0
365.0
680.0
510.0
826.0
456.0
88.0
601.0
801.0
701.0
664.0
359.0
314.0
1067.0
757.0
56.0
238.0
567.0
584.0
826.0
575.0
414.0
396.0
431.0
597.0
485.0
363.0
650.0
653.0
394.0
380.0
563.0
651.0
757.0
718.0
301.0
287.0
1107.0
746.0
261.0
440.0
420.0
740.0
803.0
343.0
388.0
692.0
648.0
684.0
561.0
558.0
561.0
915.0
698.0
388.0
738.0
641.0
434.0
437.0
716.0
808.0
408.0
740.0
599.0
489.0
618.0
378.0
465.0
679.0
532.0
354.0
1283.0
584.0
168.0
694.0
453.0
508.0
385.0
729.0
289.0
272.0
501.0
779.0
1902.0
897.0
-539.0
226.0
341.0
646.0
452.0
214.0
824.0
812.0
626.0
399.0
379.0
744.0
584.0
127.0
819.0
1103.0
190.0
186.0
620.0
459.0
1174.0
623.0
101.0
729.0
883.0
568.0
206.0
460.0
302.0
744.0
644.0
462.0
733.0
617.0
577.0
758.0
345.0
576.0
930.0
183.0
189.0
644.0
711.0
541.0
447.0
640.0
724.0
525.0
474.0
395.0
715.0
990.0
1069.0
203.0
80.0
504.0
293.0
694.0
1161.0
521.0
164.0
1014.0
501.0
-16.0
451.0
774.0
823.0
696.0
476.0
360.0
853.0
920.0
183.0
554.0
461.0
275.0
691.0
551.0
807.0
622.0
547.0
887.0
414.0
292.0
802.0
633.0
585.0
760.0
907.0
651.0
356.0
538.0
910.0
931.0
511.0
641.0
790.0
711.0
715.0
862.0
1037.0
1164.0
1047.0
1098.0
1017.0
874.0
1317.0
1225.0
1184.0
1293.0
1012.0
933.0
1554.0
1436.0
988.0
740.0
778.0
1011.0
1306.0
1273.0
717.0
373.0
611.0
612.0
874.0
828.0
711.0
691.0
354.0
1054.0
1022.0
295.0
399.0
1133.0
605.0
317.0
839.0
1204.0
653.0
-69.0
595.0
663.0
679.0
839.0
814.0
995.0
1248.0
1388.0
1381.0
1191.0
1363.0
1209.0
1210.0
1004.0
565.0
940.0
650.0
147.0
967.0
712.0
790.0
718.0
201.0
810.0
888.0
329.0
221.0
618.0
487.0
933.0
1052.0
223.0
74.0
687.0
715.0
346.0
626.0
540.0
534.0
726.0
496.0
587.0
578.0
446.0
690.0
587.0
803.0
565.0
338.0
504.0
555.0
397.0
461.0
762.0
459.0
424.0
854.0
749.0
724.0
477.0
226.0
465.0
1076.0
557.0
302.0
613.0
645.0
1113.0
765.0
285.0
-64.0
973.0
629.0
-73.0
375.0
477.0
1211.0
1170.0
673.0
32.0
707.0
697.0
-46.0
497.0
396.0
497.0
893.0
645.0
231.0
780.0
846.0
579.0
501.0
614.0
983.0
1051.0
732.0
811.0
1140.0
949.0
477.0
774.0
579.0
1093.0
1271.0
485.0
8.0
318.0
544.0
649.0
1217.0
416.0
-101.0
514.0
600.0
603.0
932.0
358.0
173.0
721.0
587.0
508.0
476.0
351.0
576.0
976.0
415.0
170.0
550.0
925.0
256.0
386.0
680.0
185.0
769.0
1226.0
83.0
-169.0
609.0
1179.0
509.0
-106.0
564.0
708.0
392.0
319.0
853.0
979.0
326.0
109.0
469.0
554.0
404.0
1053.0
505.0
235.0
717.0
1066.0
361.0
-132.0
535.0
1027.0
312.0
-164.0
487.0
536.0
481.0
537.0
537.0
667.0
519.0
436.0
478.0
399.0
567.0
667.0
421.0
603.0
924.0
365.0
542.0
479.0
207.0
762.0
741.0
120.0
238.0
966.0
520.0
400.0
798.0
746.0
254.0
-70.0
926.0
1000.0
75.0
228.0
772.0
493.0
355.0
397.0
1211.0
932.0
168.0
275.0
126.0
542.0
647.0
909.0
489.0
137.0
781.0
466.0
209.0
432.0
526.0
670.0
582.0
356.0
462.0
655.0
992.0
454.0
342.0
605.0
452.0
631.0
449.0
595.0
435.0
326.0
656.0
481.0
429.0
577.0
467.0
675.0
491.0
340.0
460.0
1000.0
757.0
299.0
314.0
136.0
451.0
993.0
686.0
78.0
360.0
574.0
573.0
867.0
981.0
335.0
150.0
651.0
868.0
611.0
532.0
454.0
559.0
637.0
693.0
675.0
324.0
884.0
679.0
724.0
417.0
38.0
683.0
497.0
868.0
663.0
378.0
699.0
380.0
614.0
573.0
274.0
493.0
507.0
993.0
550.0
102.0
637.0
792.0
498.0
700.0
629.0
764.0
460.0
-149.0
766.0
643.0
189.0
291.0
1231.0
610.0
-133.0
779.0
622.0
156.0
612.0
610.0
352.0
262.0
414.0
569.0
507.0
846.0
996.0
498.0
612.0
238.0
35.0
885.0
590.0
487.0
503.0
175.0
554.0
486.0
1113.0
663.0
-11.0
433.0
307.0
498.0
492.0
591.0
753.0
486.0
336.0
472.0
730.0
790.0
383.0
641.0
515.0
245.0
544.0
616.0
578.0
455.0
696.0
428.0
263.0
526.0
474.0
620.0
446.0
448.0
733.0
568.0
765.0
467.0
75.0
434.0
984.0
381.0
40.0
685.0
402.0
467.0
773.0
433.0
553.0
1628.0
334.0
-239.0
520.0
144.0
601.0
495.0
478.0
768.0
551.0
157.0
666.0
803.0
550.0
359.0
687.0
736.0
164.0
657.0
454.0
303.0
387.0
449.0
421.0
247.0
758.0
737.0
320.0
513.0
734.0
527.0
407.0
504.0
589.0
1479.0
509.0
5.0
612.0
180.0
258.0
152.0
742.0
657.0
488.0
627.0
756.0
470.0
268.0
563.0
434.0
528.0
823.0
1091.0
448.0
609.0
432.0
49.0
1266.0
864.0
-45.0
675.0
735.0
187.0
335.0
896.0
838.0
446.0
409.0
469.0
688.0
654.0
342.0
666.0
1290.0
747.0
17.0
753.0
608.0
275.0
915.0
565.0
-114.0
278.0
683.0
1211.0
915.0
-70.0
61.0
563.0
699.0
328.0
718.0
722.0
396.0
362.0
255.0
503.0
787.0
819.0
947.0
415.0
230.0
307.0
281.0
785.0
732.0
172.0
399.0
438.0
626.0
620.0
334.0
849.0
696.0
347.0
552.0
549.0
194.0
419.0
795.0
850.0
263.0
251.0
372.0
592.0
695.0
865.0
337.0
-174.0
790.0
269.0
384.0
757.0
450.0
234.0
580.0
465.0
735.0
915.0
186.0
321.0
530.0
619.0
420.0
435.0
499.0
554.0
649.0
375.0
323.0
409.0
491.0
601.0
656.0
398.0
482.0
271.0
836.0
899.0
309.0
202.0
302.0
601.0
728.0
551.0
141.0
613.0
869.0
792.0
721.0
198.0
334.0
389.0
186.0
830.0
560.0
363.0
508.0
774.0
476.0
171.0
647.0
847.0
578.0
59.0
384.0
767.0
583.0
494.0
610.0
410.0
343.0
444.0
602.0
549.0
670.0
488.0
592.0
668.0
501.0
960.0
506.0
292.0
676.0
352.0
472.0
644.0
312.0
438.0
1010.0
730.0
421.0
335.0
363.0
835.0
475.0
259.0
429.0
428.0
1104.0
799.0
199.0
512.0
563.0
791.0
1076.0
536.0
702.0
1148.0
1159.0
1220.0
1405.0
1445.0
1290.0
1265.0
788.0
613.0
909.0
797.0
505.0
505.0
983.0
627.0
170.0
567.0
708.0
368.0
567.0
554.0
556.0
946.0
665.0
765.0
468.0
-25.0
519.0
630.0
640.0
632.0
387.0
404.0
806.0
508.0
958.0
594.0
-94.0
792.0
882.0
364.0
561.0
751.0
504.0
752.0
310.0
719.0
584.0
154.0
694.0
491.0
457.0
731.0
746.0
704.0
573.0
442.0
760.0
1137.0
539.0
146.0
657.0
760.0
715.0
542.0
635.0
945.0
785.0
714.0
589.0
417.0
781.0
510.0
580.0
721.0
706.0
1012.0
1494.0
453.0
-123.0
624.0
1054.0
555.0
312.0
738.0
575.0
635.0
764.0
559.0
372.0
617.0
419.0
587.0
670.0
658.0
673.0
822.0
638.0
358.0
409.0
950.0
777.0
286.0
521.0
564.0
609.0
587.0
780.0
755.0
232.0
309.0
490.0
803.0
564.0
362.0
1169.0
459.0
91.0
823.0
463.0
653.0
501.0
289.0
1109.0
371.0
145.0
599.0
311.0
521.0
826.0
536.0
236.0
760.0
838.0
851.0
247.0
161.0
740.0
493.0
395.0
333.0
708.0
1094.0
486.0
-51.0
485.0
822.0
588.0
252.0
748.0
954.0
659.0
57.0
513.0
958.0
208.0
397.0
966.0
826.0
327.0
337.0
541.0
357.0
585.0
462.0
314.0
651.0
357.0
634.0
558.0
610.0
600.0
742.0
736.0
432.0
62.0
349.0
730.0
442.0
582.0
557.0
433.0
879.0
711.0
571.0
408.0
557.0
712.0
343.0
134.0
672.0
607.0
362.0
717.0
597.0
222.0
727.0
548.0
268.0
508.0
502.0
729.0
561.0
542.0
736.0
694.0
300.0
442.0
509.0
267.0
610.0
746.0
388.0
486.0
963.0
63.0
102.0
982.0
872.0
257.0
200.0
481.0
1011.0
901.0
583.0
540.0
407.0
425.0
752.0
667.0
837.0
987.0
848.0
1119.0
1317.0
1036.0
989.0
947.0
522.0
1043.0
616.0
356.0
691.0
443.0
706.0
941.0
719.0
468.0
633.0
1027.0
1057.0
1694.0
1473.0
1421.0
1942.0
1957.0
1510.0
1156.0
1214.0
631.0
551.0
523.0
821.0
829.0
208.0
673.0
924.0
626.0
334.0
395.0
685.0
723.0
171.0
267.0
687.0
732.0
304.0
49.0
670.0
370.0
347.0
499.0
639.0
938.0
1259.0
1919.0
2038.0
2145.0
2264.0
2254.0
2106.0
2145.0
2138.0
2213.0
2294.0
2124.0
1798.0
2285.0
1857.0
1843.0
2040.0
1702.0
2250.0
1996.0
1794.0
2045.0
2161.0
2163.0
1974.0
2076.0
2327.0
2255.0
1861.0
2259.0
2198.0
2229.0
2202.0
2260.0
2126.0
1977.0
2044.0
2086.0
2133.0
2202.0
1592.0
1644.0
2065.0
2187.0
2015.0
2248.0
2209.0
1931.0
1981.0
2020.0
1821.0
2223.0
2132.0
1911.0
2154.0
2198.0
2161.0
2112.0
2063.0
1753.0
1505.0
1864.0
1343.0
1088.0
953.0
805.0
1014.0
719.0
203.0
262.0
719.0
845.0
320.0
373.0
330.0
872.0
519.0
-137.0
908.0
303.0
-10.0
937.0
633.0
338.0
473.0
458.0
420.0
191.0
1074.0
537.0
-300.0
820.0
787.0
139.0
293.0
361.0
867.0
852.0
-14.0
197.0
651.0
971.0
600.0
-91.0
268.0
708.0
540.0
439.0
961.0
713.0
250.0
698.0
673.0
10.0
723.0
865.0
-33.0
731.0
979.0
-60.0
310.0
986.0
653.0
280.0
739.0
564.0
543.0
632.0
306.0
763.0
627.0
578.0
722.0
713.0
551.0
480.0
538.0
562.0
682.0
459.0
852.0
1106.0
243.0
369.0
1264.0
362.0
135.0
954.0
561.0
155.0
611.0
644.0
691.0
434.0
670.0
612.0
231.0
401.0
671.0
601.0
246.0
526.0
847.0
537.0
112.0
606.0
692.0
708.0
769.0
488.0
386.0
699.0
637.0
641.0
1007.0
687.0
-95.0
917.0
926.0
-321.0
39.0
603.0
571.0
398.0
517.0
926.0
267.0
241.0
484.0
396.0
652.0
1010.0
369.0
206.0
796.0
210.0
72.0
605.0
475.0
376.0
827.0
667.0
768.0
464.0
338.0
552.0
107.0
486.0
849.0
252.0
330.0
530.0
724.0
595.0
519.0
544.0
660.0
617.0
182.0
283.0
622.0
542.0
347.0
210.0
518.0
638.0
475.0
767.0
972.0
-5.0
0.0
657.0
562.0
863.0
535.0
642.0
541.0
233.0
587.0
348.0
400.0
615.0
489.0
533.0
507.0
221.0
935.0
800.0
-52.0
158.0
683.0
770.0
375.0
271.0
433.0
411.0
606.0
715.0
548.0
404.0
530.0
268.0
516.0
560.0
353.0
503.0
617.0
547.0
143.0
266.0
396.0
719.0
581.0
271.0
274.0
633.0
630.0
369.0
399.0
240.0
421.0
567.0
693.0
977.0
211.0
-28.0
532.0
447.0
609.0
395.0
165.0
405.0
491.0
539.0
524.0
733.0
281.0
492.0
1165.0
65.0
629.0
752.0
-346.0
426.0
598.0
283.0
1048.0
896.0
-113.0
24.0
1069.0
637.0
-180.0
382.0
596.0
670.0
750.0
1127.0
1196.0
1396.0
1819.0
1899.0
1947.0
2083.0
2097.0
2035.0
1348.0
1715.0
1113.0
945.0
1149.0
753.0
422.0
716.0
681.0
878.0
548.0
129.0
376.0
569.0
463.0
796.0
386.0
185.0
408.0
343.0
852.0
366.0
-26.0
446.0
646.0
669.0
275.0
519.0
280.0
-32.0
608.0
672.0
256.0
501.0
479.0
475.0
650.0
500.0
105.0
113.0
823.0
630.0
204.0
257.0
613.0
517.0
176.0
488.0
384.0
435.0
423.0
571.0
794.0
144.0
1272.0
484.0
-740.0
695.0
485.0
264.0
360.0
734.0
874.0
222.0
-180.0
472.0
405.0
218.0
732.0
619.0
276.0
293.0
440.0
446.0
341.0
657.0
665.0
153.0
272.0
402.0
332.0
345.0
482.0
547.0
470.0
743.0
731.0
501.0
247.0
146.0
303.0
216.0
416.0
416.0
1183.0
434.0
-333.0
501.0
604.0
378.0
455.0
465.0
209.0
167.0
1088.0
441.0
326.0
496.0
-90.0
549.0
620.0
415.0
354.0
426.0
330.0
694.0
718.0
170.0
169.0
294.0
415.0
873.0
767.0
253.0
41.0
441.0
263.0
469.0
608.0
412.0
282.0
297.0
464.0
653.0
583.0
227.0
615.0
435.0
459.0
422.0
195.0
573.0
457.0
385.0
795.0
487.0
30.0
750.0
433.0
178.0
471.0
594.0
426.0
666.0
546.0
86.0
341.0
703.0
858.0
1842.0
1531.0
1733.0
2266.0
1601.0
2130.0
2145.0
2209.0
2255.0
2294.0
1812.0
2317.0
2214.0
2164.0
2212.0
1586.0
2216.0
2116.0
1961.0
2216.0
2055.0
2070.0
1397.0
2246.0
1956.0
2249.0
2121.0
2070.0
1686.0
1365.0
1006.0
1052.0
869.0
1025.0
638.0
408.0
1122.0
713.0
-48.0
376.0
505.0
626.0
2223.0
355.0
-1608.0
271.0
353.0
306.0
875.0
544.0
184.0
224.0
277.0
634.0
267.0
275.0
674.0
1079.0
756.0
-93.0
601.0
404.0
3.0
559.0
365.0
271.0
283.0
651.0
395.0
695.0
502.0
389.0
1849.0
1679.0
2132.0
1806.0
2166.0
1963.0
2240.0
2035.0
2102.0
2261.0
1823.0
1795.0
2176.0
2271.0
2085.0
2207.0
1979.0
1734.0
2187.0
2164.0
2118.0
2137.0
1919.0
2254.0
1929.0
2091.0
1974.0
2167.0
2262.0
2153.0
2005.0
2279.0
1823.0
2130.0
2187.0
2008.0
2163.0
2135.0
1660.0
2157.0
2081.0
2194.0
1942.0
1691.0
1908.0
2231.0
2175.0
1781.0
2205.0
2210.0
2108.0
1968.0
2062.0
1877.0
1915.0
1349.0
1311.0
1193.0
921.0
706.0
621.0
743.0
845.0
360.0
73.0
550.0
623.0
141.0
283.0
988.0
311.0
368.0
721.0
295.0
68.0
282.0
556.0
331.0
370.0
262.0
388.0
452.0
554.0
229.0
282.0
561.0
561.0
693.0
345.0
98.0
284.0
432.0
563.0
444.0
300.0
395.0
696.0
964.0
574.0
628.0
1250.0
951.0
813.0
1487.0
1129.0
953.0
1434.0
992.0
689.0
714.0
398.0
578.0
675.0
520.0
410.0
273.0
606.0
1047.0
374.0
156.0
285.0
736.0
667.0
-335.0
89.0
1009.0
393.0
-269.0
411.0
1107.0
236.0
-294.0
545.0
668.0
174.0
330.0
708.0
620.0
349.0
217.0
711.0
367.0
295.0
435.0
365.0
340.0
101.0
849.0
497.0
-57.0
891.0
335.0
147.0
635.0
175.0
325.0
862.0
412.0
-212.0
351.0
839.0
871.0
57.0
-138.0
343.0
682.0
496.0
215.0
321.0
489.0
555.0
482.0
735.0
374.0
126.0
303.0
584.0
258.0
152.0
424.0
647.0
288.0
217.0
247.0
402.0
712.0
346.0
575.0
860.0
378.0
116.0
273.0
573.0
416.0
289.0
296.0
509.0
384.0
967.0
508.0
-402.0
590.0
461.0
100.0
453.0
506.0
584.0
319.0
260.0
392.0
398.0
209.0
352.0
677.0
586.0
333.0
495.0
587.0
163.0
90.0
679.0
528.0
336.0
546.0
222.0
-131.0
498.0
372.0
371.0
461.0
511.0
520.0
389.0
419.0
197.0
200.0
602.0
719.0
199.0
278.0
393.0
342.0
205.0
936.0
703.0
-17.0
212.0
106.0
303.0
612.0
318.0
211.0
647.0
463.0
488.0
166.0
307.0
424.0
252.0
267.0
479.0
1174.0
1263.0
24.0
-504.0
245.0
582.0
378.0
697.0
219.0
131.0
542.0
249.0
641.0
614.0
181.0
226.0
336.0
297.0
350.0
854.0
417.0
173.0
424.0
497.0
261.0
86.0
335.0
739.0
535.0
212.0
373.0
518.0
986.0
291.0
-193.0
500.0
554.0
780.0
451.0
-241.0
665.0
500.0
201.0
454.0
257.0
675.0
622.0
-72.0
185.0
1122.0
146.0
-363.0
546.0
323.0
534.0
331.0
451.0
657.0
320.0
560.0
151.0
504.0
681.0
67.0
103.0
558.0
508.0
267.0
832.0
216.0
-165.0
511.0
743.0
466.0
350.0
364.0
632.0
522.0
38.0
441.0
826.0
468.0
486.0
598.0
140.0
420.0
470.0
219.0
577.0
299.0
285.0
972.0
149.0
5.0
541.0
541.0
625.0
619.0
648.0
143.0
395.0
475.0
80.0
675.0
463.0
194.0
368.0
471.0
512.0
181.0
145.0
833.0
471.0
328.0
814.0
74.0
176.0
386.0
385.0
400.0
175.0
640.0
637.0
386.0
372.0
220.0
608.0
1310.0
168.0
-288.0
511.0
358.0
112.0
78.0
490.0
274.0
275.0
484.0
842.0
453.0
117.0
160.0
194.0
681.0
465.0
786.0
241.0
-237.0
255.0
1123.0
655.0
-479.0
304.0
342.0
368.0
388.0
614.0
755.0
175.0
316.0
664.0
382.0
373.0
349.0
99.0
414.0
471.0
223.0
498.0
1000.0
136.0
-140.0
704.0
202.0
285.0
764.0
452.0
208.0
666.0
532.0
102.0
652.0
391.0
56.0
323.0
728.0
287.0
-20.0
606.0
528.0
25.0
430.0
452.0
721.0
299.0
347.0
806.0
571.0
1189.0
1151.0
757.0
900.0
1302.0
1644.0
870.0
869.0
817.0
662.0
962.0
427.0
376.0
331.0
471.0
426.0
377.0
539.0
281.0
584.0
371.0
970.0
477.0
1776.0
682.0
-1811.0
-49.0
383.0
480.0
684.0
329.0
-63.0
354.0
658.0
541.0
99.0
151.0
789.0
578.0
306.0
1134.0
629.0
1790.0
-47.0
-1730.0
486.0
462.0
270.0
763.0
638.0
200.0
434.0
94.0
444.0
1043.0
179.0
-125.0
729.0
774.0
693.0
140.0
11.0
516.0
372.0
404.0
587.0
366.0
323.0
499.0
1046.0
415.0
-220.0
555.0
438.0
217.0
803.0
585.0
-24.0
388.0
305.0
606.0
335.0
-173.0
796.0
790.0
370.0
31.0
324.0
514.0
878.0
970.0
401.0
258.0
731.0
1123.0
1231.0
996.0
903.0
953.0
711.0
785.0
859.0
570.0
467.0
1127.0
563.0
153.0
470.0
400.0
285.0
351.0
425.0
492.0
673.0
309.0
646.0
429.0
433.0
1101.0
390.0
-370.0
223.0
849.0
481.0
-74.0
321.0
823.0
291.0
300.0
824.0
620.0
897.0
812.0
1503.0
2114.0
1843.0
2007.0
2159.0
1905.0
2092.0
2075.0
1840.0
2264.0
2030.0
2233.0
2193.0
2132.0
2131.0
1262.0
739.0
920.0
1058.0
735.0
447.0
580.0
524.0
757.0
604.0
132.0
289.0
650.0
736.0
96.0
-69.0
503.0
512.0
428.0
283.0
584.0
712.0
112.0
170.0
321.0
396.0
908.0
304.0
88.0
659.0
283.0
298.0
489.0
681.0
525.0
-99.0
455.0
585.0
85.0
310.0
337.0
627.0
392.0
102.0
341.0
393.0
590.0
461.0
141.0
1205.0
404.0
-314.0
342.0
329.0
678.0
230.0
195.0
400.0
650.0
516.0
68.0
238.0
544.0
159.0
379.0
812.0
674.0
132.0
7.0
615.0
543.0
706.0
737.0
74.0
0.0
137.0
198.0
518.0
917.0
256.0
-36.0
370.0
620.0
458.0
421.0
621.0
122.0
18.0
619.0
553.0
573.0
228.0
486.0
571.0
-37.0
642.0
510.0
256.0
168.0
489.0
348.0
294.0
414.0
310.0
823.0
548.0
101.0
348.0
726.0
611.0
462.0
429.0
290.0
785.0
508.0
444.0
1126.0
1992.0
2035.0
2186.0
2129.0
2118.0
2143.0
2109.0
2166.0
2281.0
2208.0
2019.0
1702.0
2118.0
2068.0
1684.0
1131.0
899.0
891.0
925.0
679.0
598.0
691.0
664.0
1087.0
922.0
704.0
1033.0
1413.0
1506.0
1962.0
2085.0
1658.0
2136.0
2243.0
1526.0
1445.0
1139.0
856.0
906.0
729.0
690.0
135.0
515.0
471.0
418.0
617.0
299.0
429.0
611.0
367.0
332.0
225.0
392.0
544.0
622.0
317.0
282.0
499.0
336.0
741.0
339.0
-157.0
335.0
745.0
282.0
187.0
335.0
387.0
364.0
318.0
763.0
340.0
327.0
579.0
341.0
724.0
352.0
-100.0
320.0
419.0
406.0
176.0
561.0
960.0
-68.0
-74.0
316.0
99.0
598.0
510.0
47.0
203.0
453.0
720.0
398.0
18.0
663.0
497.0
159.0
462.0
379.0
510.0
162.0
-9.0
327.0
466.0
400.0
401.0
586.0
562.0
163.0
144.0
579.0
248.0
230.0
392.0
319.0
527.0
400.0
42.0
625.0
508.0
-3.0
167.0
577.0
492.0
600.0
581.0
113.0
153.0
-64.0
1039.0
630.0
-300.0
304.0
232.0
195.0
381.0
291.0
749.0
801.0
273.0
-211.0
129.0
755.0
709.0
-34.0
-59.0
658.0
458.0
159.0
288.0
487.0
484.0
135.0
124.0
318.0
288.0
664.0
361.0
7.0
487.0
497.0
197.0
338.0
552.0
412.0
528.0
359.0
129.0
426.0
456.0
-50.0
159.0
525.0
370.0
170.0
664.0
734.0
401.0
-32.0
-7.0
492.0
394.0
334.0
226.0
586.0
483.0
383.0
281.0
46.0
955.0
170.0
47.0
272.0
230.0
756.0
474.0
175.0
-84.0
290.0
741.0
172.0
40.0
349.0
609.0
529.0
-49.0
197.0
792.0
211.0
156.0
537.0
276.0
327.0
341.0
294.0
528.0
340.0
207.0
643.0
705.0
550.0
67.0
-24.0
357.0
411.0
248.0
305.0
569.0
98.0
163.0
1472.0
499.0
-440.0
393.0
378.0
98.0
-126.0
301.0
701.0
638.0
74.0
47.0
581.0
714.0
294.0
-10.0
354.0
316.0
524.0
322.0
412.0
518.0
147.0
508.0
472.0
20.0
-58.0
578.0
502.0
401.0
334.0
159.0
676.0
855.0
46.0
202.0
438.0
41.0
747.0
338.0
402.0
668.0
-267.0
-59.0
555.0
488.0
251.0
335.0
771.0
476.0
111.0
287.0
222.0
359.0
579.0
480.0
192.0
714.0
499.0
372.0
300.0
129.0
229.0
347.0
369.0
111.0
416.0
503.0
402.0
608.0
532.0
45.0
602.0
513.0
207.0
196.0
302.0
422.0
273.0
225.0
415.0
579.0
393.0
330.0
258.0
1672.0
261.0
-763.0
310.0
334.0
473.0
528.0
520.0
494.0
219.0
-209.0
400.0
347.0
345.0
340.0
267.0
909.0
707.0
120.0
319.0
235.0
299.0
548.0
419.0
45.0
113.0
689.0
493.0
103.0
413.0
313.0
140.0
338.0
440.0
574.0
387.0
206.0
340.0
307.0
460.0
747.0
628.0
-64.0
382.0
372.0
70.0
412.0
278.0
321.0
354.0
620.0
334.0
226.0
507.0
965.0
361.0
-347.0
302.0
606.0
353.0
143.0
361.0
861.0
240.0
-8.0
424.0
367.0
335.0
335.0
416.0
242.0
264.0
519.0
1108.0
412.0
-285.0
93.0
358.0
342.0
411.0
476.0
282.0
198.0
643.0
336.0
-34.0
150.0
192.0
375.0
221.0
314.0
769.0
440.0
-55.0
235.0
444.0
197.0
419.0
471.0
111.0
191.0
342.0
325.0
403.0
654.0
558.0
56.0
314.0
1115.0
459.0
-170.0
351.0
359.0
203.0
1082.0
451.0
-496.0
565.0
455.0
10.0
447.0
118.0
17.0
916.0
384.0
-165.0
477.0
480.0
467.0
243.0
-6.0
551.0
542.0
100.0
333.0
820.0
146.0
-146.0
234.0
572.0
789.0
200.0
288.0
473.0
444.0
618.0
148.0
148.0
-91.0
80.0
306.0
460.0
550.0
382.0
475.0
733.0
386.0
-136.0
288.0
895.0
527.0
-238.0
234.0
497.0
429.0
368.0
86.0
280.0
358.0
150.0
813.0
608.0
69.0
246.0
577.0
365.0
75.0
266.0
630.0
430.0
313.0
367.0
248.0
476.0
456.0
180.0
46.0
431.0
592.0
315.0
-100.0
592.0
859.0
483.0
8.0
118.0
448.0
686.0
301.0
177.0
316.0
109.0
512.0
502.0
653.0
442.0
267.0
522.0
9.0
79.0
512.0
377.0
684.0
612.0
286.0
111.0
34.0
332.0
527.0
754.0
167.0
771.0
673.0
-9.0
21.0
70.0
724.0
600.0
53.0
1.0
418.0
907.0
91.0
478.0
1285.0
152.0
-412.0
-31.0
251.0
928.0
402.0
-78.0
907.0
439.0
602.0
823.0
143.0
547.0
574.0
-276.0
-51.0
511.0
672.0
199.0
208.0
572.0
298.0
514.0
176.0
-28.0
369.0
392.0
291.0
308.0
392.0
491.0
299.0
398.0
354.0
342.0
347.0
99.0
627.0
602.0
244.0
503.0
210.0
735.0
365.0
-434.0
142.0
436.0
575.0
383.0
228.0
460.0
410.0
134.0
473.0
663.0
-10.0
107.0
631.0
693.0
611.0
91.0
-55.0
406.0
291.0
432.0
395.0
194.0
649.0
385.0
377.0
489.0
161.0
410.0
466.0
861.0
273.0
-206.0
768.0
643.0
-147.0
185.0
1051.0
569.0
-27.0
251.0
119.0
141.0
332.0
975.0
359.0
-48.0
770.0
466.0
205.0
571.0
169.0
168.0
688.0
666.0
361.0
711.0
471.0
-98.0
332.0
439.0
485.0
959.0
518.0
-93.0
983.0
437.0
-215.0
577.0
802.0
564.0
435.0
485.0
511.0
969.0
388.0
139.0
828.0
529.0
501.0
645.0
363.0
544.0
596.0
1275.0
1306.0
315.0
271.0
438.0
543.0
458.0
326.0
643.0
643.0
825.0
553.0
474.0
491.0
712.0
617.0
670.0
600.0
777.0
585.0
341.0
501.0
329.0
837.0
921.0
461.0
194.0
250.0
489.0
640.0
993.0
357.0
147.0
640.0
292.0
428.0
689.0
831.0
343.0
278.0
458.0
541.0
181.0
159.0
392.0
327.0
425.0
459.0
767.0
314.0
104.0
505.0
187.0
406.0
450.0
396.0
356.0
163.0
215.0
318.0
784.0
892.0
478.0
-93.0
-65.0
452.0
179.0
359.0
583.0
530.0
539.0
-174.0
-42.0
508.0
399.0
888.0
539.0
-213.0
344.0
845.0
266.0
-93.0
555.0
386.0
315.0
355.0
171.0
270.0
590.0
553.0
385.0
213.0
-42.0
347.0
667.0
200.0
313.0
710.0
283.0
148.0
753.0
510.0
-149.0
452.0
654.0
152.0
122.0
260.0
539.0
377.0
512.0
322.0
-42.0
376.0
821.0
268.0
-151.0
324.0
379.0
474.0
563.0
443.0
355.0
655.0
457.0
-188.0
158.0
526.0
377.0
423.0
548.0
304.0
192.0
555.0
215.0
541.0
436.0
119.0
293.0
-72.0
388.0
850.0
748.0
385.0
-55.0
263.0
461.0
411.0
430.0
202.0
198.0
733.0
266.0
-160.0
510.0
36.0
98.0
804.0
297.0
6.0
295.0
947.0
552.0
-290.0
599.0
375.0
-102.0
233.0
433.0
363.0
-59.0
497.0
690.0
372.0
-17.0
315.0
443.0
11.0
212.0
276.0
734.0
534.0
264.0
124.0
22.0
405.0
434.0
500.0
350.0
383.0
385.0
-4.0
405.0
600.0
153.0
252.0
914.0
244.0
112.0
488.0
97.0
349.0
140.0
202.0
455.0
270.0
87.0
738.0
309.0
-272.0
593.0
203.0
101.0
556.0
417.0
199.0
515.0
466.0
250.0
106.0
579.0
291.0
-132.0
149.0
219.0
465.0
50.0
184.0
434.0
349.0
315.0
-24.0
302.0
377.0
700.0
319.0
128.0
255.0
-179.0
239.0
619.0
402.0
52.0
166.0
355.0
492.0
418.0
141.0
175.0
671.0
120.0
-17.0
395.0
599.0
526.0
-74.0
-38.0
1487.0
543.0
-685.0
609.0
503.0
73.0
220.0
16.0
1.0
606.0
263.0
-39.0
237.0
329.0
1271.0
421.0
-161.0
380.0
-169.0
411.0
186.0
-20.0
496.0
242.0
418.0
586.0
92.0
331.0
640.0
566.0
-182.0
1.0
688.0
190.0
-162.0
159.0
601.0
346.0
260.0
595.0
422.0
16.0
-34.0
332.0
560.0
128.0
127.0
631.0
327.0
241.0
412.0
6.0
-29.0
676.0
569.0
1.0
-45.0
280.0
787.0
774.0
2.0
-62.0
305.0
179.0
186.0
252.0
744.0
530.0
627.0
795.0
-492.0
-393.0
604.0
708.0
-59.0
8.0
432.0
76.0
339.0
213.0
145.0
804.0
603.0
-40.0
149.0
343.0
91.0
136.0
252.0
527.0
192.0
200.0
410.0
526.0
357.0
298.0
555.0
30.0
369.0
580.0
-163.0
-147.0
355.0
510.0
386.0
95.0
86.0
297.0
433.0
185.0
595.0
219.0
52.0
710.0
159.0
-23.0
327.0
156.0
219.0
346.0
1442.0
1046.0
-515.0
-135.0
472.0
98.0
-141.0
342.0
404.0
185.0
281.0
725.0
337.0
-135.0
338.0
395.0
415.0
388.0
104.0
376.0
329.0
581.0
537.0
-336.0
80.0
621.0
263.0
38.0
343.0
108.0
98.0
437.0
455.0
501.0
94.0
247.0
600.0
26.0
-38.0
709.0
770.0
-9.0
121.0
233.0
376.0
516.0
133.0
248.0
206.0
155.0
117.0
363.0
662.0
77.0
-256.0
444.0
396.0
526.0
307.0
76.0
418.0
457.0
-97.0
135.0
240.0
-388.0
-291.0
384.0
94.0
-633.0
-179.0
331.0
546.0
-404.0
273.0
-68.0
-847.0
-40.0
31.0
-14.0
14.0
-47.0
24.0
8.0
29.0
-19.0
-25.0
-27.0
-48.0
-42.0
11.0
